INDEX VERSION 1.131+/home/anantharaman/Documents/workspace-spring-tool-suite-4-4.16.0.RELEASE/.metadata/.plugins/org.eclipse.jdt.core
1472500398.index
2121135364.index
1467336590.index
3922622691.index
2324197757.index
3286967921.index
270753713.index
1452709265.index
2523982269.index
2251851235.index
2762620733.index
1911002284.index
2582435695.index
3808757581.index
91689978.index
1610936522.index
2864654044.index
1835940508.index
301433690.index
3477924746.index
2243415283.index
1512341206.index
1889860683.index
1411922947.index
1645705354.index
1028655330.index
4031986266.index
2516237844.index
3006086969.index
846414074.index
2467627471.index
2335478458.index
888557340.index
2972585945.index
2927295818.index
3619019444.index
2943108403.index
3823301372.index
1152583833.index
4220907528.index
1244348661.index
608854373.index
62084194.index
2991971943.index
4244193590.index
101912597.index
1159048256.index
364891701.index
668198129.index
922560535.index
2781210189.index
196322097.index
4136133425.index
2291792751.index
3518218556.index
908719012.index
1158547390.index
3749022713.index
3531181411.index
603014105.index
3372858787.index
335336694.index
3111876625.index
898405401.index
4196707376.index
1361625270.index
2765232656.index
251269047.index
1060336119.index
2069298607.index
3273012959.index
3686604237.index
1792187078.index
656520861.index
3808655474.index
2092862762.index
3443843320.index
137521508.index
1831188806.index
613340036.index
2704988179.index
1109968106.index
1279711045.index
2126989214.index
4140011745.index
4150541975.index
348454274.index
2199973425.index
2242222262.index
460200451.index
432960210.index
1639870041.index
466741897.index
3496651722.index
141510516.index
1351173248.index
3349259613.index
3382829961.index
1865797976.index
2339129949.index
1563215224.index
494436447.index
2346362005.index
797080827.index
1329810499.index
767307279.index
161933732.index
1324532429.index
2378647442.index
1781844375.index
1412603225.index
3874831129.index
301400659.index
4227900289.index
1829888808.index
700642706.index
1455233166.index
462014437.index
381274793.index
2112598296.index
3904489460.index
44601678.index
3475021019.index
139909549.index
3353157113.index
605710582.index
2435056351.index
2993637507.index
809427142.index
67061609.index
4030074145.index
2642125377.index
231511041.index
2497408142.index
3660622460.index
1613170514.index
2761769797.index
3043650588.index
1635977829.index
1353882270.index
2123653704.index
669874226.index
1410135884.index
518155142.index
115167013.index
2020606851.index
3411738055.index
3856580781.index
47229835.index
2239821232.index
3148242258.index
602555048.index
850059787.index
3908087301.index
154092742.index
914064665.index
3282072594.index
502629062.index
772992405.index
3718721425.index
299332744.index
3800233753.index
3603977108.index
3456540221.index
2315117598.index
2231979856.index
2786879528.index
2102843778.index
3496083358.index
3958012626.index
3719559077.index
58192984.index
2909755791.index
2081871912.index
2450273013.index
3297254721.index
2841047676.index
3739110705.index
4052434691.index
3060492793.index
1784176297.index
2266355275.index
1779262913.index
3654731668.index
3626929544.index
2027570230.index
2806067017.index
2062672747.index
3942126383.index
3439362964.index
466016455.index
2139746803.index
1389686056.index
3496159455.index
2578724523.index
523863446.index
1838017494.index
3292971223.index
2703444391.index
2001785831.index
4169672165.index
157150674.index
1558776584.index
2983721751.index
688309454.index
1685571965.index
3788389270.index
3477024452.index
2420521978.index
785605737.index
3735261066.index
2707034921.index
3721420479.index
141163159.index
1304666533.index
1896676299.index
2571972341.index
4158565793.index
3887292900.index
1352729337.index
2476196217.index
2698282545.index
3495767552.index
3031713766.index
1180756145.index
2981912919.index
2207823726.index
606989716.index
3771631945.index
2130964524.index
843556723.index
1846567375.index
258478190.index
779158707.index
3421107248.index
1336991101.index
957883631.index
2903914299.index
430274834.index
2517987132.index
1175113793.index
2904659949.index
950831338.index
1159906178.index
1267615190.index
1876606964.index
3814916122.index
3081893309.index
4050109158.index
890663387.index
2055901506.index
2835760454.index
3919363053.index
2036968550.index
465069200.index
3211952320.index
3585597954.index
1812220971.index
2088170030.index
2898550320.index
70046017.index
2258362734.index
2575995244.index
3552773477.index
1677440990.index
3921964755.index
3224849682.index
689772809.index
2980966767.index
2573770747.index
2264134845.index
3043071694.index
1596951980.index
2402168795.index
2436578244.index
4197644408.index
2251255302.index
1573700684.index
2926605353.index
2223146433.index
36007943.index
1801016654.index
3898068984.index
201869160.index
1833069330.index
435545816.index
1839881441.index
1719334221.index
985466670.index
249837731.index
2969880356.index
644135991.index
906764605.index
597934254.index
3475871815.index
2975104093.index
2788891434.index
1255031802.index
2303074227.index
216566444.index
405756379.index
975040830.index
616189159.index
87137132.index
1763089656.index
3637515584.index
51873983.index
2796014241.index
1078892093.index
1673538233.index
1714109511.index
2470376441.index
3714152898.index
3570094650.index
2051491323.index
1809924273.index
4264989309.index
4185457505.index
1226699688.index
2731725129.index
615723116.index
3335928293.index
2445565855.index
1813929946.index
2872177607.index
1615029636.index
2390004878.index
2380987395.index
2057597675.index
2356393189.index
2662995434.index
2872579373.index
4222993566.index
770924332.index
2364811273.index
1891889003.index
1745566790.index
3119799982.index
3321824979.index
2328812555.index
1049596387.index
2148830081.index
3706308780.index
3694146579.index
1407762337.index
3742278770.index
78952270.index
2129720186.index
3823202783.index
575539146.index
3229223438.index
3970541618.index
3232793508.index
765542647.index
216792830.index
155317503.index
1154713944.index
3343420025.index
694724669.index
1417159491.index
2416006922.index
121730905.index
1189447473.index
3236308067.index
2410563501.index
2110580729.index
1040730491.index
191802511.index
1451148675.index
2254562903.index
834938237.index
186330393.index
2399507775.index
1679238957.index
4063968851.index
3423821804.index
215193790.index
3739409817.index
1982407649.index
2939377954.index
721960588.index
1635726174.index
4245325694.index
3721176316.index
391426038.index
3651470884.index
3427812337.index
1074400643.index
3446403126.index
1908303066.index
1256428956.index
2475861743.index
2568323479.index
